timestamp,acc_x,acc_y,acc_z,rot_x,rot_y,rot_z
1738565231.407229,0.014579564332962036,-0.08268368244171143,0.1110912561416626,-0.15236079692840576,0.06240121275186539,-0.13104644417762756
1738565231.4080238,-0.10125917196273804,-0.07672905921936035,-0.02409648895263672,-0.23760059475898743,0.19350725412368774,-0.29275938868522644
1738565231.411063,-0.10775265097618103,-0.05549180507659912,-0.1179955005645752,-0.22248545289039612,0.36959731578826904,-0.47815799713134766
1738565231.431272,-0.019536703824996948,-0.030873656272888184,-0.11314231157302856,-0.2662532925605774,0.4755989611148834,-0.484826922416687
1738565231.451364,0.023219525814056396,-0.040354371070861816,-0.1688733994960785,-0.1940733641386032,0.47942614555358887,-0.5049824714660645
1738565231.47101,0.025485098361968994,-0.029204607009887695,-0.20982134342193604,-0.09386042505502701,0.43644145131111145,-0.5815423130989075
1738565231.4908462,0.09320741891860962,0.007299900054931641,-0.24786150455474854,0.04732414335012436,0.361452579498291,-0.5547566413879395
1738565231.510806,0.1798909306526184,0.05029386281967163,-0.2197469174861908,0.13356375694274902,0.41333919763565063,-0.3703761398792267
1738565231.531934,0.2272191345691681,0.08443224430084229,-0.18567109107971191,0.19033655524253845,0.5354082584381104,-0.1170840933918953
1738565231.551138,0.20650342106819153,0.10232323408126831,-0.16040849685668945,0.25956520438194275,0.6554276347160339,0.08148650079965591
1738565231.574521,0.16601818799972534,0.13357925415039062,-0.1637531816959381,0.4220564365386963,0.5763711333274841,0.22333848476409912
1738565231.591955,0.14182043075561523,0.1644970178604126,-0.10933971405029297,0.5188553333282471,0.3033660054206848,0.38219308853149414
1738565231.611404,0.16465693712234497,0.17763543128967285,-0.03276526927947998,0.5000772476196289,0.08187714219093323,0.622308611869812
1738565231.6317449,0.16563507914543152,0.22678321599960327,0.010708808898925781,0.4034065306186676,0.16209600865840912,0.8601284027099609
1738565231.651506,0.15586525201797485,0.28101539611816406,0.05442306399345398,0.24377833306789398,0.41045135259628296,1.083941102027893
1738565231.6712751,0.15913917124271393,0.3254186511039734,0.0890285074710846,0.07068786025047302,0.5611913800239563,1.3308601379394531
1738565231.690927,0.16938406229019165,0.37806570529937744,0.1302308440208435,-0.1132393628358841,0.6326858401298523,1.6221203804016113
1738565231.711,0.1614629030227661,0.44499897956848145,0.2063840627670288,-0.3842400312423706,0.6551968455314636,1.9487836360931396
1738565231.732492,0.11655955016613007,0.48768752813339233,0.25402572751045227,-0.649956464767456,0.5244741439819336,2.2490577697753906
1738565231.750799,0.06874184310436249,0.5238974094390869,0.22284963726997375,-0.7590946555137634,0.2226463109254837,2.5524702072143555
1738565231.770741,-0.013120293617248535,0.5641406774520874,0.16910111904144287,-0.7411447763442993,-0.21310028433799744,2.755446195602417
1738565231.791769,-0.1621297299861908,0.6212719678878784,0.10636532306671143,-0.6585434079170227,-0.3231780529022217,2.7132163047790527
1738565231.8110108,-0.23678967356681824,0.611728847026825,0.13331153988838196,-0.7097479104995728,0.044204939156770706,2.6041643619537354
1738565231.8317928,-0.19677409529685974,0.6274056434631348,0.31760597229003906,-1.193599820137024,0.18445535004138947,2.7125914096832275
1738565231.850542,-0.12323866784572601,0.603222668170929,0.4572031795978546,-1.925061583518982,0.14995935559272766,2.9663727283477783
1738565231.874681,-0.14760327339172363,0.6646076440811157,0.440732479095459,-2.5543034076690674,0.028757615014910698,3.144317388534546
1738565231.892343,-0.3664468228816986,0.6487035155296326,0.26781147718429565,-2.660266876220703,-0.43579399585723877,2.920752763748169
1738565231.910634,-0.41887879371643066,0.5371761322021484,0.15567535161972046,-2.5364952087402344,-0.7947131395339966,2.5578436851501465
1738565231.931632,-0.3008922040462494,0.5549825429916382,0.28874367475509644,-2.948601007461548,-0.45261913537979126,2.613741159439087
1738565231.950511,-0.17994529008865356,0.6171995401382446,0.3767543435096741,-3.7280023097991943,-0.011480599641799927,3.011587381362915
1738565231.9705439,-0.3831040561199188,0.6898573040962219,0.1944788098335266,-4.108327865600586,-0.19905966520309448,3.1050615310668945
1738565231.991627,-0.6581960320472717,0.5773953795433044,-0.11614739894866943,-3.775871515274048,-0.8574424982070923,2.599428653717041
1738565232.010676,-0.6588084101676941,0.5231761932373047,-0.18798840045928955,-3.525249481201172,-0.8687305450439453,2.2593142986297607
1738565232.032021,-0.47784197330474854,0.5926203727722168,-0.028078675270080566,-3.9322621822357178,-0.18403908610343933,2.413754940032959
1738565232.050451,-0.6881152987480164,0.6034486293792725,-0.10498237609863281,-4.176133155822754,0.550466001033783,2.1735875606536865
1738565232.0704532,-0.9837639927864075,0.45550209283828735,-0.33507615327835083,-3.8965322971343994,0.819513201713562,1.2422336339950562
1738565232.0921788,-1.0207589864730835,0.37976062297821045,-0.31988346576690674,-3.893277406692505,1.1767174005508423,0.1935555338859558
1738565232.110385,-0.9166510105133057,0.40412241220474243,-0.28925299644470215,-3.9918739795684814,1.72771155834198,-0.6195165514945984
1738565232.131829,-0.740578293800354,0.3985503911972046,-0.4627528190612793,-3.634195566177368,1.8275679349899292,-1.1256672143936157
1738565232.1507,-0.6187940239906311,0.3717793822288513,-0.5000038146972656,-3.1656494140625,1.645588755607605,-1.3973082304000854
1738565232.170387,-0.5747568607330322,0.35657525062561035,-0.43376612663269043,-2.7899489402770996,1.2827599048614502,-1.6430174112319946
1738565232.191606,-0.49476590752601624,0.35798895359039307,-0.25099271535873413,-2.692760467529297,0.929309606552124,-1.8275864124298096
1738565232.210287,-0.5294092297554016,0.3435216248035431,-0.20188266038894653,-2.557546615600586,0.5741408467292786,-2.246242046356201
1738565232.230352,-0.6461471915245056,0.3060718774795532,-0.29773491621017456,-2.2804205417633057,0.2897223234176636,-3.08424711227417
1738565232.2503,-0.5905148983001709,0.36693790555000305,-0.31766754388809204,-2.111819267272949,0.4041699171066284,-3.808791160583496
1738565232.270272,-0.4361276924610138,0.47606098651885986,-0.35434311628341675,-1.9264626502990723,0.7808255553245544,-4.230635166168213
1738565232.291946,-0.26157981157302856,0.530983567237854,-0.4017130732536316,-1.6246191263198853,1.1225578784942627,-4.339976787567139
1738565232.310162,-0.21307817101478577,0.5238614678382874,-0.4690849781036377,-1.2298450469970703,1.2830603122711182,-4.5365190505981445
1738565232.332005,-0.21071025729179382,0.5103760957717896,-0.5329155921936035,-0.83059161901474,1.5397340059280396,-4.881955623626709
1738565232.3504,-0.12007075548171997,0.5402254462242126,-0.5138358473777771,-0.5726665258407593,2.041212797164917,-5.084128379821777
1738565232.370367,0.002775818109512329,0.5532321333885193,-0.5603166222572327,-0.20942874252796173,2.84667706489563,-4.9458818435668945
1738565232.392142,0.1674519181251526,0.562889039516449,-0.5050592422485352,0.0894446149468422,3.5204081535339355,-4.483555316925049
1738565232.410331,0.31603384017944336,0.5086109042167664,-0.42531412839889526,0.3025147020816803,3.3637936115264893,-3.810861349105835
1738565232.4316878,0.3952391743659973,0.4192873537540436,-0.42728501558303833,0.585208535194397,2.7013700008392334,-3.113682270050049
1738565232.450366,0.3274343013763428,0.3633120656013489,-0.4353345036506653,0.8830299973487854,2.1667022705078125,-2.6446332931518555
1738565232.4701319,0.2240089774131775,0.32100677490234375,-0.4847143888473511,1.32158362865448,1.8227014541625977,-2.4687180519104004
1738565232.491695,0.22591310739517212,0.32489490509033203,-0.44277864694595337,1.6041125059127808,1.5341312885284424,-2.213369131088257
1738565232.509928,0.28697407245635986,0.33800363540649414,-0.44855839014053345,1.925199031829834,1.2819253206253052,-1.798660397529602
1738565232.529993,0.21479180455207825,0.3853513300418854,-0.47954708337783813,2.35079288482666,1.187058687210083,-1.6004204750061035
1738565232.549926,0.11642295122146606,0.41360414028167725,-0.4394661784172058,2.6634271144866943,1.1956216096878052,-1.6155738830566406
1738565232.569827,0.11955273151397705,0.4436545968055725,-0.39004838466644287,2.885033369064331,1.38337242603302,-1.4850163459777832
1738565232.592375,0.16619688272476196,0.44194915890693665,-0.3735293745994568,3.1593079566955566,1.3758783340454102,-1.1921045780181885
1738565232.610155,0.07923144102096558,0.46262550354003906,-0.3527888059616089,3.5346357822418213,1.3225409984588623,-1.0233349800109863
1738565232.631953,0.1178145557641983,0.46906712651252747,-0.18532222509384155,3.516273260116577,1.2372387647628784,-0.7674092650413513
1738565232.6498399,0.1528863161802292,0.47264012694358826,-0.0496707558631897,3.270313024520874,1.3488249778747559,-0.33128267526626587
1738565232.669807,0.1100204586982727,0.4924256205558777,-0.007127642631530762,3.050150156021118,1.480173945426941,0.03765961527824402
1738565232.6897922,0.02345055341720581,0.4928627610206604,0.0007848739624023438,2.8773419857025146,1.5470302104949951,0.2096083164215088
1738565232.709556,0.008304119110107422,0.4676564335823059,0.014886975288391113,2.7475383281707764,1.5619616508483887,0.39275896549224854
1738565232.731639,-0.021799713373184204,0.4560452103614807,0.005045771598815918,2.728851795196533,1.5769803524017334,0.546402096748352
1738565232.749672,-0.01293116807937622,0.4692375659942627,0.08350062370300293,2.452090263366699,1.652209758758545,0.7322990894317627
1738565232.769922,0.05287638306617737,0.44127166271209717,0.16360104084014893,1.9977294206619263,1.8842213153839111,1.1069010496139526
1738565232.7917562,0.04739663004875183,0.43934381008148193,0.1090579628944397,1.7318720817565918,1.9815294742584229,1.450553059577942
1738565232.809568,-0.03276008367538452,0.4304121732711792,0.015545129776000977,1.7387993335723877,1.8810380697250366,1.5843095779418945
1738565232.829881,-0.07331079244613647,0.43555933237075806,0.00713425874710083,1.7502565383911133,1.7924399375915527,1.6289596557617188
1738565232.849946,-0.040894150733947754,0.42500418424606323,0.06672918796539307,1.5838629007339478,1.7613182067871094,1.7919723987579346
1738565232.8698502,-0.06864035129547119,0.405337929725647,0.031706392765045166,1.5056072473526,1.6244089603424072,1.9011332988739014
1738565232.8921828,-0.14994454383850098,0.37304723262786865,-0.0054634809494018555,1.532706618309021,1.587750792503357,1.8693642616271973
1738565232.909511,-0.1582660973072052,0.3329887390136719,0.0026850104331970215,1.5410239696502686,1.6133687496185303,1.8439102172851562
1738565232.929476,-0.13464608788490295,0.316941499710083,0.03789415955543518,1.476550579071045,1.6537634134292603,1.9208489656448364
1738565232.949481,-0.1738181710243225,0.322668194770813,0.079262375831604,1.339685082435608,1.5120080709457397,1.9264172315597534
1738565232.969346,-0.22454607486724854,0.30531978607177734,0.15713757276535034,1.0554598569869995,1.2408466339111328,1.760869026184082
1738565232.991942,-0.23894622921943665,0.28136539459228516,0.31073057651519775,0.4187454879283905,1.204224705696106,1.560362696647644
1738565233.009413,-0.24549570679664612,0.24442058801651,0.329329252243042,-0.19672954082489014,1.3258066177368164,1.3687682151794434
1738565233.029523,-0.2300201952457428,0.22077322006225586,0.1518014371395111,-0.3885916471481323,1.4410229921340942,1.2584656476974487
1738565233.0495691,-0.2623215317726135,0.19373369216918945,0.009399592876434326,-0.27533698081970215,1.4539580345153809,1.1715776920318604
1738565233.06993,-0.2869246006011963,0.13963091373443604,-0.08637923002243042,0.013745347037911415,1.255455732345581,1.082662582397461
1738565233.0898728,-0.3217991888523102,0.1255386471748352,-0.09505987167358398,0.22433733940124512,1.0851473808288574,0.9748813509941101
1738565233.1092448,-0.2856467366218567,0.12015384435653687,0.0035638809204101562,0.09684492647647858,1.1592779159545898,0.9702111482620239
1738565233.129232,-0.3167300522327423,0.08831489086151123,-0.02417933940887451,0.022732391953468323,1.2224323749542236,0.9523444771766663
1738565233.150847,-0.34966814517974854,0.0770534873008728,-0.08903692662715912,0.0635262280702591,0.9256150126457214,0.8874891996383667
1738565233.16924,-0.35444745421409607,0.05010414123535156,-0.09094884991645813,0.05967557430267334,0.45874258875846863,0.8490450978279114
1738565233.192352,-0.3573014736175537,0.018650352954864502,-0.08374784886837006,0.02219402603805065,0.1655179262161255,0.8195407390594482
1738565233.209075,-0.3897709846496582,-0.005282342433929443,-0.017494022846221924,-0.2638385593891144,0.4395976960659027,0.6313706040382385
1738565233.229239,-0.41268861293792725,-0.009646117687225342,0.009080454707145691,-0.6112449765205383,0.9569633603096008,0.3488757610321045
1738565233.249199,-0.3744117021560669,0.013022303581237793,0.047946155071258545,-1.0765031576156616,1.1649738550186157,0.14024439454078674
1738565233.269147,-0.35534337162971497,0.02249932289123535,0.2183232307434082,-1.9454995393753052,1.5975126028060913,-0.10822110623121262
1738565233.291788,-0.39661258459091187,-0.003070354461669922,0.027883946895599365,-2.2382259368896484,2.087085247039795,-0.46366751194000244
1738565233.3093572,-0.3976786136627197,-0.025613725185394287,-0.35321342945098877,-1.5538727045059204,2.056591510772705,-0.7734993696212769
1738565233.329002,-0.2739105224609375,-0.012448251247406006,-0.4071230888366699,-0.8553054332733154,1.6944650411605835,-0.7122367024421692
1738565233.348868,-0.1392415463924408,0.007845938205718994,-0.2773609757423401,-0.5281367301940918,1.258144736289978,-0.4171585440635681
1738565233.368999,-0.12157995253801346,0.040834009647369385,-0.19416210055351257,-0.3850816488265991,0.8710494637489319,-0.14453072845935822
1738565233.3925729,-0.140548437833786,0.03691422939300537,-0.16131055355072021,-0.4452764093875885,0.21933619678020477,0.0004841703921556473
