timestamp,acc_x,acc_y,acc_z,rot_x,rot_y,rot_z
1738565152.54563,0.02320745587348938,-0.01135927438735962,-0.08121594786643982,-0.7093121409416199,0.28449827432632446,-0.5251477956771851
1738565152.546715,0.022547170519828796,0.01854032278060913,-0.27987051010131836,-0.6153188943862915,0.6017173528671265,-0.4939807057380676
1738565152.566853,0.0015321075916290283,0.03711944818496704,-0.38727158308029175,-0.3397979140281677,0.6620180606842041,-0.5817246437072754
1738565152.585191,0.03110179305076599,0.08616089820861816,-0.47350525856018066,0.17608237266540527,0.4792504608631134,-0.6582965850830078
1738565152.606079,0.15997251868247986,0.11939477920532227,-0.44806140661239624,0.6910384893417358,0.31124165654182434,-0.5060364007949829
1738565152.625702,0.261637419462204,0.16207176446914673,-0.34719136357307434,1.0217201709747314,0.18812516331672668,-0.09316013753414154
1738565152.645638,0.2701645493507385,0.16900759935379028,-0.20127755403518677,1.0547459125518799,0.12047675251960754,0.3356715440750122
1738565152.665197,0.22532561421394348,0.22683930397033691,-0.14035186171531677,1.0057530403137207,0.10879406332969666,0.6033586859703064
1738565152.685264,0.15283074975013733,0.27026814222335815,-0.12154406309127808,0.9936533570289612,0.19940125942230225,0.7712520360946655
1738565152.7053351,0.14912086725234985,0.28431636095046997,-0.0716010332107544,0.9680154323577881,0.23416370153427124,0.8759753704071045
1738565152.725288,0.17491227388381958,0.32736772298812866,-0.015093326568603516,0.9109806418418884,0.25484126806259155,1.0767558813095093
1738565152.745332,0.21648859977722168,0.3490560054779053,0.05559021234512329,0.782882571220398,0.26458024978637695,1.41117262840271
1738565152.7670379,0.24650876224040985,0.3729737401008606,0.11153843998908997,0.593932569026947,0.19709444046020508,1.883802890777588
1738565152.7853398,0.19760610163211823,0.4136914014816284,0.13452282547950745,0.33295881748199463,0.13431653380393982,2.325256586074829
1738565152.805433,0.09032522141933441,0.42319655418395996,0.1047721803188324,0.17474113404750824,0.05431070923805237,2.558682680130005
1738565152.82564,0.05724230408668518,0.45259928703308105,0.11519968509674072,0.09774735569953918,-0.17992529273033142,2.7019388675689697
1738565152.8455548,0.10921484231948853,0.5009285807609558,0.18396788835525513,-0.05979926511645317,-0.3742038309574127,3.040411949157715
1738565152.865289,0.08213487267494202,0.5552394986152649,0.2067817747592926,-0.3172321319580078,-0.5375722646713257,3.461000442504883
1738565152.885188,-0.06456595659255981,0.5789865255355835,0.14302551746368408,-0.3121640682220459,-0.7924997210502625,3.6217257976531982
1738565152.9052138,-0.11277921497821808,0.5767766833305359,0.18698632717132568,-0.28534355759620667,-1.1439604759216309,3.617253541946411
1738565152.9251099,-0.06203049421310425,0.6110827326774597,0.26769328117370605,-0.41226303577423096,-1.3995217084884644,3.7582194805145264
1738565152.945348,-0.10758829116821289,0.6330294013023376,0.22057569026947021,-0.4957793056964874,-1.8866130113601685,3.993232250213623
1738565152.967572,-0.23170101642608643,0.6058989763259888,0.14715182781219482,-0.24048155546188354,-2.445181131362915,3.9092655181884766
1738565152.985126,-0.22141534090042114,0.6106005311012268,0.171888530254364,0.04663369804620743,-3.042490005493164,3.833606243133545
1738565153.005103,-0.1661204695701599,0.6724063754081726,0.2309298813343048,0.03661488741636276,-3.3251760005950928,3.980163812637329
1738565153.025023,-0.1445426344871521,0.7156652212142944,0.221324622631073,-0.1722019761800766,-2.9453728199005127,4.262981414794922
1738565153.045104,-0.2134779691696167,0.699514627456665,0.1773100346326828,-0.4838121831417084,-2.079786777496338,4.420167446136475
1738565153.0695062,-0.3672317862510681,0.691626250743866,0.15843458473682404,-0.8652542233467102,-1.0299129486083984,4.231434345245361
1738565153.085413,-0.4716707468032837,0.712785542011261,0.16340695321559906,-1.3055802583694458,-0.0924983024597168,3.740332841873169
1738565153.104922,-0.40949684381484985,0.6747903823852539,0.18237119913101196,-1.8166157007217407,0.5118918418884277,3.4567713737487793
1738565153.125293,-0.4685668349266052,0.6613905429840088,0.14547623693943024,-2.206944704055786,0.7520394325256348,3.1682755947113037
1738565153.145327,-0.4049292802810669,0.6356735229492188,0.12887395918369293,-2.4854674339294434,0.7007368206977844,2.987196683883667
1738565153.167841,-0.4174295663833618,0.6193057894706726,0.08643791079521179,-2.6553542613983154,0.524199366569519,2.9269015789031982
1738565153.1852288,-0.5896117687225342,0.543668270111084,0.014479011297225952,-2.6466801166534424,0.32482048869132996,2.522514820098877
1738565153.204942,-0.6197558045387268,0.5136500597000122,0.07972791790962219,-2.7509796619415283,0.327316552400589,2.020888328552246
1738565153.2246919,-0.6433172225952148,0.5110169649124146,0.10805529356002808,-3.0151710510253906,0.45753729343414307,1.4833924770355225
1738565153.244872,-0.596027672290802,0.47842925786972046,0.09414085745811462,-3.197594165802002,0.7007932066917419,0.9523798823356628
1738565153.264848,-0.5484488010406494,0.4884021282196045,0.12557268142700195,-3.489840507507324,1.014966368675232,0.48484718799591064
1738565153.285026,-0.5869742035865784,0.4681015610694885,0.0422077476978302,-3.615786552429199,1.2322869300842285,-0.12009484320878983
1738565153.305155,-0.6042622923851013,0.4165404736995697,0.03145471215248108,-3.598614454269409,1.5264036655426025,-0.9245840311050415
1738565153.325547,-0.519186794757843,0.4771466553211212,0.1585269272327423,-3.9625959396362305,1.8569713830947876,-1.587634801864624
1738565153.344737,-0.4430350065231323,0.5725274682044983,0.10975015163421631,-4.43580436706543,2.0967071056365967,-1.976464033126831
1738565153.368054,-0.4077288508415222,0.5750617980957031,-0.08177801966667175,-4.583272933959961,2.3668465614318848,-2.282485008239746
1738565153.384588,-0.367168664932251,0.5517710447311401,-0.17346984148025513,-4.468631744384766,2.715555429458618,-2.5770668983459473
1738565153.40476,-0.3376007080078125,0.5269508361816406,-0.15730339288711548,-4.424250602722168,3.017401933670044,-2.952950954437256
1738565153.424724,-0.3631702661514282,0.5130663514137268,-0.1975829005241394,-4.363598823547363,3.2893929481506348,-3.4017674922943115
1738565153.44461,-0.3654491901397705,0.5155839920043945,-0.24278175830841064,-4.2461256980896,3.597773551940918,-3.8586814403533936
1738565153.464597,-0.23487311601638794,0.5234533548355103,-0.33844733238220215,-3.9779350757598877,3.8545026779174805,-3.987711191177368
1738565153.485265,-0.1629306674003601,0.46269845962524414,-0.4572112560272217,-3.3729686737060547,3.7166991233825684,-3.932093381881714
1738565153.504833,-0.14641356468200684,0.35962027311325073,-0.5847192406654358,-2.4125442504882812,3.029738664627075,-3.9659509658813477
1738565153.5256991,-0.16166245937347412,0.31899207830429077,-0.6287170052528381,-1.3979339599609375,1.8963544368743896,-4.067261695861816
1738565153.544595,-0.04625129699707031,0.30465054512023926,-0.695068895816803,-0.42393413186073303,0.8674482703208923,-3.836817741394043
1738565153.5647368,0.00036066770553588867,0.2858611047267914,-0.6478232145309448,0.3674948513507843,0.43331822752952576,-3.5195279121398926
1738565153.585021,-0.04718172550201416,0.30557629466056824,-0.4796375632286072,0.5954569578170776,0.7504873275756836,-3.338318109512329
1738565153.604418,-0.108481764793396,0.28003236651420593,-0.3828352093696594,0.5064771175384521,1.367741346359253,-3.3243651390075684
1738565153.625278,-0.19947680830955505,0.27567607164382935,-0.3750646114349365,0.547885537147522,1.8062125444412231,-3.5185959339141846
1738565153.6444159,-0.11713975667953491,0.2541055679321289,-0.4045536518096924,0.781498908996582,1.6495767831802368,-3.6545863151550293
1738565153.6644878,-0.0818118155002594,0.29639139771461487,-0.45135486125946045,1.1386914253234863,1.6783198118209839,-3.5806264877319336
1738565153.68557,-0.1041993498802185,0.3579321801662445,-0.39143824577331543,1.4136855602264404,1.9679820537567139,-3.3887150287628174
1738565153.704442,0.03229495882987976,0.37834301590919495,-0.2722800374031067,1.5218018293380737,2.0732362270355225,-2.9995508193969727
1738565153.724936,0.08274367451667786,0.3959437608718872,-0.2403813600540161,1.5551177263259888,2.188929796218872,-2.6119277477264404
1738565153.744575,0.0895206481218338,0.3913460969924927,-0.25754106044769287,1.6040980815887451,2.462829351425171,-2.2065956592559814
1738565153.76457,0.04397886246442795,0.40459826588630676,-0.30067622661590576,1.739302635192871,2.7636008262634277,-1.7649272680282593
1738565153.784927,0.01120779663324356,0.4116990864276886,-0.3096659779548645,1.9944840669631958,2.8656182289123535,-1.3604638576507568
1738565153.80426,0.01699892431497574,0.4243331551551819,-0.2675105333328247,2.2802462577819824,2.6859543323516846,-0.992746114730835
1738565153.825612,0.03864847868680954,0.4350805878639221,-0.18565398454666138,2.4240097999572754,2.568864345550537,-0.5697121024131775
1738565153.844211,0.0037899911403656006,0.4529103636741638,-0.10477548837661743,2.33790922164917,2.589519500732422,-0.11436761915683746
1738565153.864135,-0.07929345965385437,0.435848593711853,-0.0869063138961792,2.238600969314575,2.76008939743042,0.19893014430999756
1738565153.885812,-0.09614527225494385,0.42764055728912354,-0.060445427894592285,2.236302375793457,2.8411874771118164,0.40606746077537537
1738565153.904248,-0.08464393019676208,0.4165937900543213,0.02427619695663452,2.0616812705993652,2.8665366172790527,0.6241028904914856
1738565153.925335,-0.05734841525554657,0.41602766513824463,0.06150168180465698,1.7866883277893066,2.914389133453369,0.9468621611595154
1738565153.944092,-0.10426270961761475,0.3980741500854492,0.05680441856384277,1.5205315351486206,2.9664762020111084,1.2841064929962158
1738565153.963918,-0.20509520173072815,0.38015830516815186,0.0036479830741882324,1.444382667541504,2.9432260990142822,1.3557459115982056
1738565153.98545,-0.17588815093040466,0.3442400097846985,-0.02230006456375122,1.5248199701309204,2.723628520965576,1.461657166481018
1738565154.004458,-0.12485805153846741,0.34945929050445557,0.0023418962955474854,1.5215297937393188,2.4183335304260254,1.7728674411773682
1738565154.025917,-0.15473276376724243,0.3570713400840759,0.03731942176818848,1.3753256797790527,2.148331880569458,2.0445680618286133
1738565154.044013,-0.30462759733200073,0.3513873815536499,0.013385951519012451,1.2602274417877197,2.1610605716705322,1.9883395433425903
1738565154.064066,-0.3947080969810486,0.3382670283317566,0.025168776512145996,1.2240843772888184,2.338840961456299,1.6727659702301025
1738565154.086046,-0.31865406036376953,0.30525636672973633,0.10809764266014099,1.0103846788406372,2.347870349884033,1.5351998805999756
1738565154.1039271,-0.26190292835235596,0.30511999130249023,0.20202502608299255,0.6500216126441956,2.1742935180664062,1.667470932006836
1738565154.1254869,-0.33567163348197937,0.264814555644989,0.23005253076553345,0.19016863405704498,2.0177032947540283,1.6704155206680298
1738565154.1438498,-0.4469355344772339,0.24364304542541504,0.1881430745124817,-0.17189531028270721,2.1195878982543945,1.3418872356414795
1738565154.163831,-0.40366941690444946,0.21771180629730225,0.16054195165634155,-0.5142819285392761,2.358503818511963,1.0356460809707642
1738565154.1836782,-0.30010196566581726,0.22746551036834717,0.1278562843799591,-0.8428853750228882,2.5744071006774902,1.0014996528625488
1738565154.20399,-0.34425386786460876,0.2059098482131958,0.020908772945404053,-1.1172302961349487,2.555119037628174,0.9677960872650146
1738565154.225196,-0.35813814401626587,0.12566035985946655,-0.10093781352043152,-1.0868356227874756,2.315366268157959,0.7735027074813843
1738565154.243995,-0.3371358811855316,0.11397445201873779,-0.14162886142730713,-0.9451131820678711,1.8421475887298584,0.6535988450050354
1738565154.2637901,-0.2911386489868164,0.08321070671081543,-0.1755712628364563,-0.679343581199646,1.2538468837738037,0.7653716802597046
1738565154.283595,-0.3143818974494934,0.07203799486160278,-0.1829601228237152,-0.4118821322917938,0.6689445376396179,0.8674436807632446
1738565154.303773,-0.3626013696193695,0.05207347869873047,-0.18735480308532715,-0.18150712549686432,0.3203433156013489,0.894584059715271
1738565154.323719,-0.3973752558231354,0.03841894865036011,-0.13945767283439636,-0.06528564542531967,0.18781451880931854,0.7493493556976318
1738565154.3436809,-0.38330066204071045,0.020277082920074463,-0.12138715386390686,-0.09250567853450775,0.020989153534173965,0.6345808506011963
1738565154.363594,-0.4205976724624634,-0.017460763454437256,-0.16290351748466492,-0.06387696415185928,-0.03242744505405426,0.3725457787513733
1738565154.385035,-0.3729408085346222,0.007528960704803467,-0.1400284767150879,-0.1747860312461853,0.15362510085105896,0.15912912786006927
1738565154.403613,-0.26574575901031494,0.028186500072479248,-0.1306793987751007,-0.36888977885246277,0.4236542582511902,0.19305124878883362
1738565154.423558,-0.24271056056022644,0.03003329038619995,-0.18327167630195618,-0.4141950011253357,0.36433932185173035,0.28325027227401733
1738565154.443799,-0.2869828939437866,0.019055068492889404,-0.2888583540916443,-0.1398267149925232,0.14483746886253357,0.2438785433769226
1738565154.4637961,-0.3005984425544739,0.034778714179992676,-0.3165813982486725,0.22510291635990143,-0.03644990175962448,0.16228380799293518
1738565154.485784,-0.27466481924057007,0.05034095048904419,-0.2778732180595398,0.4333939254283905,-0.19593662023544312,0.1343742460012436
1738565154.503463,-0.247455894947052,0.04181927442550659,-0.13009393215179443,0.2994717061519623,-0.2208564728498459,0.09009117633104324
